Start Time(s),X(°),Y(°),Start Time(s),X(°),Y(°),Start Time(s),X(°),Y(°),Start Time(s),X(°),Y(°),Start Time(s),X(°),Y(°),Start Time(s),X(°),Y(°)
668.0,42.34089531516656,76.29470339883119,668.0,38.723641878925264,80.85578646371141,,,,668.0,38.31933761690743,86.28307024762034,668.0,41.954969592392445,82.51705109421164,668.0,47.074267072137445,78.51672875648364
669.0,41.66800938290544,77.00444238632917,669.0,37.817118691978976,81.41381232393906,,,,669.0,37.51181283360347,86.56548559200019,669.0,40.90548491163645,84.10775797022507,669.0,45.17674127337523,79.98256017500535
670.0,41.00121469050646,77.34462550422177,670.0,36.949076892458834,81.54736776137725,,,,670.0,36.97275234933477,86.7968773781322,670.0,39.93804200994782,85.49650621321052,670.0,43.31038799602538,81.46738853817806
671.0,40.13317249098327,77.47818069951609,671.0,35.763223959482275,81.86051330063492,,,,671.0,36.433082889183424,87.06522478209808,671.0,39.17671971314121,86.79623777419329,671.0,42.24211908807047,83.24261382734403
672.0,39.266652993508615,77.51934698177502,672.0,34.81070438481402,82.34385004686192,,,,672.0,35.95423463743646,87.4639543555677,672.0,38.18419630150311,87.79643366159871,672.0,40.96204233390745,84.4968292908743
673.0,38.687686418532394,77.30649340059608,673.0,33.8702685770113,83.04917980916798,,,,673.0,35.31739458395168,87.89704559044912,673.0,37.30123198940419,88.8354010200128,673.0,40.13837582245469,85.75856758188456
674.0,38.50542870245408,77.85797385219485,674.0,32.99278613785282,83.75554722454399,,,,674.0,34.881802108255215,88.53676474979147,674.0,36.68977744667791,89.63856686558574,674.0,39.15763130376581,86.99923412734643
675.0,37.798630194040015,78.71501664910465,675.0,32.2406008169055,84.50094543071464,,,,675.0,34.67954279645346,89.34667499409989,675.0,36.35856639361009,90.63117985706776,675.0,38.28857771132607,88.14932757848874
676.0,36.90327685070224,79.5504689058289,676.0,31.599192735855468,85.21120382100344,,,,676.0,34.25786143715959,90.0975203346461,676.0,35.8258034135215,91.43564275000244,676.0,37.92040790710598,89.47402203828096
677.0,36.249077082728036,81.03679441753775,677.0,30.98773846658878,86.01436999626458,,,,677.0,33.75657510734163,90.9025021167472,677.0,35.538761793868616,92.61381189990789,677.0,37.067092950223014,90.62437498336658
678.0,35.37941428006161,82.22384371096268,678.0,30.243982921005227,87.20349479699507,,,,678.0,33.16390470787883,91.521149600856,678.0,35.251720134401694,93.79198106518015,678.0,36.198039881768636,91.7744685956277
679.0,34.73882126738317,83.83977326052263,679.0,29.47301446448546,88.13341174507514,,,,679.0,32.38267985009588,92.1182066295296,679.0,35.17110333114397,94.86265561543405,679.0,35.20399457786698,92.86705372203141
680.0,33.530225845752284,84.57764894235879,680.0,28.78286921104882,88.93528111977503,,,,680.0,31.647147066891193,92.80843086726964,680.0,34.592245772480965,96.5535339359194,680.0,34.25929599953815,93.83107254933566
681.0,32.62096240092069,85.30197538388893,681.0,28.267063216655515,89.66609257599339,,,,681.0,30.831095859524794,93.6082249674946,681.0,34.839696025126614,97.77747815288603,681.0,33.075478343409486,94.97597852023318
682.0,31.866340974112973,86.19519597059116,682.0,27.847514006542042,90.28759360406548,,,,682.0,30.12399448128417,94.48374603083357,682.0,35.108975375420414,98.632125871256,682.0,32.293035470182076,95.64694672916085
683.0,30.988249761401676,86.93851912813261,683.0,27.50970158376731,90.72561361361295,,,,683.0,29.30702991038561,95.33897362928838,683.0,35.81983934994787,99.43860331596807,683.0,32.46372002956923,95.79762239940464
684.0,30.018165359273553,87.53246367536485,684.0,27.207020184840076,90.94241886399686,,,,684.0,28.61718965473119,96.12236520228907,684.0,36.08911856764462,100.29325106739998,684.0,32.51032571645919,95.83535616053268
685.0,29.355842180899344,88.55658532865345,685.0,26.749599396716803,91.951434857212,,,,685.0,28.05386469210498,96.87087630387396,685.0,36.14171687187627,100.92253371141851,685.0,32.432852535741404,95.76014802744612
686.0,29.32396339578554,89.5356490672566,686.0,26.514341627364047,92.85321544203907,,,,686.0,28.037724283640273,97.85019944887608,686.0,36.00606526655611,101.51174798235297,686.0,32.74304960784502,96.04250279767439
687.0,29.28903932776302,90.69949076371267,687.0,26.12017858994659,93.84479119209573,,,,687.0,28.099666033871472,98.86777509655803,687.0,36.15065655251965,102.29040937172249,687.0,33.021770080318674,96.32433879282326
688.0,29.552228603162803,91.92369419662282,688.0,26.167600423912518,94.7881962582469,,,,688.0,27.927665739669465,99.75211540842429,688.0,35.98413759947289,102.84214926091954,688.0,33.25449394795578,96.5314854318276
689.0,29.93837621482089,92.37364596035331,689.0,26.202024839352816,95.56504179211333,,,,689.0,27.973260214552283,100.80638727359474,689.0,36.095425093662925,103.73115863325074,689.0,33.64185939938761,96.90752616897225
690.0,29.789118375745602,92.83325635176152,690.0,26.24040817131754,96.10167599888518,,,,690.0,28.19197538192384,101.86351237911731,690.0,35.867171350168064,104.20794974360615,690.0,33.99866207758896,97.22761476133019
691.0,29.23239531891886,94.13636063365266,691.0,26.27452803659253,96.89699932234362,,,,691.0,28.53964181500487,102.73793463595212,691.0,35.88829307327978,104.83671359391883,691.0,34.37059382931329,97.58491833694279
692.0,28.655159138608724,94.77374554751441,692.0,26.14131323818583,97.33839134545997,,,,692.0,28.841311689815484,103.53766755573452,692.0,36.028316127252765,105.89254192402586,692.0,34.665356954792514,97.84853598522022
693.0,28.461329729529098,96.02738237380981,693.0,26.261433127103373,97.69154450902715,,,,693.0,28.988339786068536,104.16850646818057,693.0,36.37232711573597,106.98869802616537,693.0,34.537830000626855,98.89995455741882
694.0,28.389447490568273,97.52330561494455,694.0,26.299207373755053,98.26513430662453,,,,694.0,28.9949419075856,104.72309971274808,694.0,36.21667355496902,107.83634204417467,694.0,34.12488259584643,100.07604857999831
695.0,28.18688428972382,98.35169376758859,695.0,26.680482417577878,99.0107306712307,,,,695.0,28.95311114192009,105.35082598263398,695.0,36.53468994423747,108.59937903750688,695.0,34.14052260259632,101.03741273470223
696.0,27.968278388259932,99.19830032764003,696.0,26.85046034050174,100.15946657164022,,,,696.0,29.06622643081937,106.12896848423406,696.0,36.86813999759033,109.38115324359387,696.0,34.17190087947529,101.99903628602624
697.0,28.010218336828984,100.47430573031306,697.0,27.205033726175316,101.5700042033568,,,,697.0,29.50314488983713,107.31906962022185,697.0,36.777875724597834,110.08201249083504,697.0,34.114233321044594,103.58760790526867
698.0,26.357202539220452,102.38775765849277,698.0,27.431264767772518,103.12628914602101,,,,698.0,30.03114281501621,108.71398287406191,698.0,36.54749020037707,110.68814816279337,698.0,33.36144026706461,104.36996158026159
699.0,25.943038078490645,103.63776316866279,699.0,27.438987451139838,104.5680759404786,,,,699.0,30.454454554594122,109.77448011469096,699.0,36.2238934985362,111.21881625941023,699.0,32.68886124365963,105.06122328480706
700.0,25.378191032097675,104.47866337187588,700.0,27.718828347395174,105.73710535420105,,,,700.0,30.938892009668052,110.94688171613961,700.0,35.708392410189845,111.93114954745397,700.0,32.26596232573502,105.88597987405956
701.0,25.092673450824805,105.56444380665198,701.0,28.421469820081256,107.04248277191073,,,,701.0,31.35915810870938,112.19215696584433,701.0,35.25523534719832,112.68147603841498,701.0,32.04887891863473,106.6401973888278
702.0,24.484168897848576,107.14393710019067,702.0,29.078723715385422,108.23621531529352,,,,702.0,31.746425037970766,113.52930243033916,702.0,34.81690286635421,113.48749534133822,702.0,32.335419110255316,107.40271546179429
703.0,24.359992783283815,107.9921000180766,703.0,29.363436928833835,109.10960006341338,,,,703.0,31.988393155741505,115.08584693260491,703.0,34.30079288734123,114.2367842826061,703.0,31.937394996522926,107.6733975908719
704.0,24.172254736186005,108.87618100550026,704.0,29.42903287219815,109.905442208983,,,,704.0,32.30874783114996,116.6621662103571,704.0,34.11670862638857,114.89913157746196,704.0,32.06411647913046,108.58114409260452
705.0,23.738795490236953,109.38655601302162,705.0,29.632009356166236,110.96230798494071,,,,705.0,32.635802319739014,117.83197399321944,705.0,33.84154505247716,115.35666675306857,705.0,32.1421004984295,109.58050140272826
706.0,24.15337386005558,110.02180430386215,706.0,29.958150849328376,112.18754904111847,,,,706.0,32.86903657740913,118.9632698316127,706.0,33.80458666034974,115.68874828470871,706.0,31.95131624606438,110.64936023484915
707.0,24.506826389813796,110.54514831816778,707.0,30.190776493167505,113.35580038977787,,,,707.0,33.230308343539946,119.96729626925662,707.0,34.07691100204829,116.358618051745,707.0,32.05356576363556,111.13159866211936
708.0,25.04761503613554,111.16399389412254,708.0,30.504834069288336,114.35904853511602,,,,708.0,33.580105460830964,120.71237419126555,708.0,34.396754531306215,117.01078821811825,708.0,32.2181590545224,111.65183025877923
709.0,25.55540451325942,111.87470971234143,709.0,30.643943746807054,115.47031017160043,,,,709.0,33.853952400851995,121.28985498659313,709.0,34.468745628837496,117.41859671100974,709.0,30.26286560553126,112.80250407988206
710.0,25.920940760639496,112.62004671012983,710.0,30.811789014027454,116.74839075934142,,,,710.0,34.03367455152329,121.84730161447078,710.0,34.79133004939649,117.90446673007682,710.0,28.751897559151985,113.73870753822848
711.0,26.425075684324838,113.55249612266198,711.0,31.358874326688237,117.94030775595456,,,,711.0,34.26061132736504,122.40552643500268,711.0,34.86840001051314,118.95925747882575,711.0,27.77633405767847,114.66525252489373
712.0,26.833867527660914,114.53882264532149,712.0,31.722278096713126,118.81498956913128,712.0,5.919259839691222,77.80149054154754,712.0,34.62797382834833,123.03999701235443,712.0,34.902214443078265,119.77305868687108,712.0,26.025029630516656,115.85625472571701
713.0,26.583176397369243,115.42186606256291,713.0,32.03907622699626,119.65193762164563,713.0,4.974467616411857,79.72661662101746,713.0,34.85216958296951,123.76452201511711,713.0,35.157277574180625,120.53505808347836,713.0,24.571838238742203,117.1076188320294
714.0,27.051571173593402,116.61248589586467,714.0,32.085888219764456,120.6322983680293,714.0,4.023890498443507,82.00282085128129,714.0,35.09210354741663,124.48930642101914,714.0,35.41234066337347,121.29705747775733,714.0,23.102909043780528,118.35872375546023
715.0,27.4261455622036,117.76459384337068,715.0,32.14447925123386,121.85312985815108,715.0,3.1410433967830613,84.9455224648118,715.0,35.381383981206454,125.08552446682006,715.0,35.72944296046626,122.11552786268294,715.0,22.308287429390475,119.76880446728319
716.0,27.64120583597105,119.04345252225175,716.0,31.935216067475267,123.08802947029471,716.0,2.4155795568367466,87.89081759750843,716.0,35.58588219853118,126.05000143451616,716.0,35.93759595614392,122.85827129380777,716.0,21.650133128627203,121.49534213077277
717.0,27.766100252512842,120.06206575687975,717.0,31.633959997212514,124.17355035524815,717.0,1.9195862837368622,90.28540977090597,717.0,35.727732142899185,126.99496302613989,717.0,36.16148707084358,123.60127412900329,717.0,21.458436535322107,122.61963450815529
718.0,27.460276507772505,121.42475368222222,718.0,31.409263297449797,125.38971278537065,718.0,1.3754650539485738,92.73465732857585,718.0,36.0938761534635,127.70334486942738,718.0,36.44680817355402,124.43770354427397,718.0,20.84119922388345,123.7738793217577
719.0,27.645382857881486,122.61070462362841,719.0,30.75263033702504,127.02386094722897,719.0,0.6491836465429515,94.7742813336663,719.0,36.50814839859959,128.35707153007388,719.0,36.57657448423561,125.16067219432443,719.0,20.141921146423556,125.13008303986862
720.0,27.883185590500943,123.4648334113881,720.0,30.479196339612827,128.33163420856,720.0,-0.3609951490070671,96.84619281906635,720.0,36.8289050089661,128.95380841614679,720.0,36.56104220589623,126.10303979832679,720.0,19.208701845025644,126.35305163869634
721.0,28.007775356876664,124.50192444771528,721.0,30.34953815850895,129.51239740662277,721.0,-1.45047365676146,98.95376329356804,721.0,37.136359786847606,129.4024635455571,721.0,36.38660510769114,127.1352023803629,721.0,18.53907339484431,127.82064097421244
722.0,28.236441819695756,125.91038712207228,722.0,30.045541511266492,130.7642185096629,722.0,-2.234835460083559,100.69670541584492,722.0,37.45742088055704,129.9807226662524,722.0,36.183127992553636,128.01902379933745,722.0,18.124301756266505,129.1076023504138
723.0,28.278076835675165,127.20487036881968,723.0,29.759110321756452,131.90543222194538,723.0,-3.202061139396392,103.02808428648859,723.0,37.82265098008793,130.7445379635319,723.0,35.8059214502573,128.9369474160485,723.0,18.526698678033426,130.4819622579962
724.0,28.020076864166185,128.53138085873798,724.0,29.408508278429508,133.1195195717737,724.0,-4.471966671291739,105.57626938773319,724.0,38.18178985780105,131.8779092100449,724.0,35.458668682025746,129.9477788321674,724.0,17.739387038513087,131.4485761942342
725.0,27.764817795483395,129.69159119110554,725.0,29.21681103715673,134.24381184764206,725.0,-5.545096382964402,107.6471439874731,725.0,38.604795161867514,132.95688470173627,725.0,35.31783998152241,130.85111566307023,725.0,17.550431767595,132.40656846249476
726.0,27.39847779844422,130.90541921462864,726.0,28.89859910821542,135.40298460330814,726.0,-6.288331707124598,109.76042026979849,726.0,38.7929455145495,133.95805796049535,726.0,35.25752960215323,131.64488269668072,726.0,17.17657679587137,133.1212369534187
727.0,27.25612703769002,131.90114509919658,727.0,28.53256366669666,136.59833479160443,727.0,-6.86362221010495,112.19067174429074,727.0,38.71537392854225,134.8439545747824,727.0,34.935456313192844,132.08316184114665,727.0,16.896542123286054,133.8744172747247
728.0,27.400718474411406,132.6798063898459,728.0,27.88263164460659,137.8259716113098,728.0,-7.116021665628068,115.08831405313686,728.0,38.844530772883445,135.60387886548415,728.0,35.25895385444164,132.513598526828,728.0,16.694893923704512,134.64737224159762
729.0,27.83133833971806,133.29683648748323,729.0,27.187007891829126,138.96044131927192,729.0,-7.271954797557555,118.81927243480459,729.0,39.08507314394228,136.29170781048015,729.0,35.260378007311374,133.38231434533373,729.0,16.70088753174059,135.2389210644178
730.0,28.146004461916164,134.26312901638448,730.0,26.56855260930024,140.18859698530287,730.0,-7.843989979010075,122.00737284542993,730.0,39.62311851140112,137.07685444969684,730.0,35.32292775879614,134.3629345409572,730.0,16.421461883350275,135.95514579722658
731.0,28.24673103808891,134.8377564093098,731.0,25.93100933986716,141.61974905617535,731.0,-8.583055708091706,124.82306477427483,731.0,40.16055457270704,137.89895670767874,731.0,35.586419351166114,135.5686604916118,731.0,16.109037417452782,136.76324077462777
732.0,28.363195927115157,135.41264318255708,732.0,25.277728020679206,143.05064177466556,732.0,-9.459197971271351,127.35925587592646,732.0,40.650166842271574,138.75723637780175,732.0,35.849910873454064,136.77438644412905,732.0,15.796308380085975,137.58981355885044
733.0,28.463313395623118,136.0242261677049,733.0,24.76974503393285,144.26213542558253,733.0,-10.31889837316703,128.8976461631246,733.0,41.013264397508465,139.65039640152827,733.0,35.96779936715029,138.21798916347325,733.0,14.463946644798853,138.1962717100978
734.0,28.597648172290064,136.47002776898444,734.0,24.40523290319834,145.36509676557034,734.0,-11.227944415644743,130.5646030982025,734.0,41.280105353333056,140.65286677051336,734.0,36.422280940343626,139.29748337483034,734.0,13.567991250078194,139.0686813853681
735.0,28.495910014258698,136.91193854389712,735.0,24.514084374299273,146.40192840527743,735.0,-12.348589528119192,132.65317813679576,735.0,41.46703708101995,141.72795128589496,735.0,36.29262201208621,140.47824653750286,735.0,12.857240027049556,140.16593704884872
736.0,28.42199382430408,137.5761016481556,736.0,24.626285795820877,147.23550429567695,736.0,-13.34850458195433,135.05795036815107,736.0,41.54715164215304,142.5979641964659,736.0,36.13026854034979,141.73240210209042,736.0,12.34986745833885,141.34047567285597
737.0,28.439765831572004,138.4081212482415,737.0,24.65492368163541,148.3634280138649,737.0,-14.30242248333525,137.5374118341133,737.0,41.484404251445085,143.5395536068827,737.0,36.107731436612085,143.09975904226303,737.0,12.04587329167407,142.5922972126864
738.0,28.376410576398484,139.38666628394276,738.0,24.731689680484124,149.43669648421928,738.0,-15.126476389938034,139.7787366323173,738.0,41.29392403783277,144.58993452880532,738.0,35.68574733915739,143.86908209044486,738.0,11.995212615234777,143.7558795986697
739.0,28.451653619878925,140.552323771175,739.0,24.934056477737613,150.53051783703268,739.0,-16.26133572217077,141.77466375241056,739.0,41.05501095519867,145.71344840852544,739.0,35.4747552650515,144.25374361872673,739.0,11.820778196444735,144.78804250853136
740.0,28.384034784976393,141.7895579407923,740.0,25.167290557874367,151.66181354643777,740.0,-17.397014285670593,142.86491976538673,740.0,40.5594140709145,147.12845653202385,740.0,35.13389856996946,144.8765413183719,740.0,11.458703593700193,145.74318189313635
741.0,28.25254955771379,143.08118795603514,741.0,25.481347155291587,152.66506162006408,741.0,-18.541123863658868,143.51144952280447,741.0,40.15855093766004,148.52654330898076,741.0,34.775780934956856,145.59146860800683,741.0,11.586948714451864,146.55853915726766
742.0,28.136802565539256,144.3730773641728,742.0,25.608068346511573,153.57280810782686,742.0,-19.358993873698637,144.42211413569748,742.0,39.99071490124334,150.11329918494448,742.0,34.43461976735853,146.23274411493912,742.0,11.620764741790481,147.37234025634825
743.0,27.99292921158485,145.4611922330223,743.0,25.230863549746573,154.49073206959292,743.0,-19.973180750850588,145.3915832620114,743.0,39.821965209324844,151.75548844551668,743.0,34.32009020738769,147.45072230044752,743.0,11.640365110128187,148.0934930066578
744.0,27.77127853955608,146.4925767723471,744.0,25.037339778849855,155.7258912003599,744.0,-20.569193774601445,146.21348938625306,744.0,39.904721737490036,153.42030602041632,744.0,35.298804187448695,148.2431318871677,744.0,12.100025387015194,148.85886352695525
745.0,27.313250783714466,147.538548307959,745.0,24.908900391077623,156.8327432917431,745.0,-21.41245068470016,146.75407963851467,745.0,39.880965780466795,154.8615741878748,745.0,36.01331916009076,148.8278759997338,745.0,12.272439789958298,149.85977685730904
746.0,26.77531401393935,148.6571341152303,746.0,24.91845013445709,158.16366340080276,746.0,-22.009376868372783,147.63141922140494,746.0,39.548233235953376,155.94657607050613,746.0,36.501103829126805,149.7970222607255,746.0,12.30260157387238,150.8953115027398
747.0,26.55000904481858,149.91025223443285,747.0,24.86108811548911,159.73375733289868,747.0,-21.554256408941,151.53879105020314,747.0,39.1025925076101,157.1960623022169,747.0,36.79820306471083,150.8739225147292,747.0,12.257422169204801,151.7262935792096
748.0,26.581387537764385,150.87187580484897,,,,748.0,-20.715635878266767,155.1013083611615,748.0,38.7998135878006,158.37397199869156,748.0,36.595944458502345,151.68383274553344,748.0,12.402014342951588,152.50495464215055
749.0,26.76771145069506,151.98391561117023,,,,749.0,-19.20484204927925,158.95214327191934,749.0,38.69828056800179,159.75850975094363,749.0,36.5202003326267,152.45886260224506,749.0,12.3111428944394,153.24276965018362
750.0,26.953730680281296,153.11443322105333,,,,,,,,,,750.0,36.428718108916655,153.23363306140527,750.0,12.22027154872194,153.9805846614763
751.0,27.360997893381864,154.19314886722714,,,,,,,,,,751.0,36.697995514259674,154.0882809557952,751.0,11.942064784001559,154.62289831694216
752.0,27.53432430839166,155.13862913940102,,,,,,,,,,752.0,37.264166078181006,155.07720208307728,752.0,12.335422366042621,155.5904871718958
